160
0 0 1 0 0 
0 0 2 0 0 
0 0 3 0 0 
0 0 4 0 0 
0 0 5 0 0 
0 0 6 0 0 
0 0 7 0 0 
0 0 8 0 0 
1 0 1 0 0 
0 0 2 0 0 
2 0 3 0 0 
0 0 4 0 0 
3 0 5 0 0 
0 0 6 0 0 
4 0 7 0 0 
0 1 9 0 0 
5 2 1 1 0 
5 3 2 2 0 
6 3 3 3 0 
6 3 4 4 0 
7 3 5 1 0 
7 3 6 5 0 
8 3 7 6 0 
9 3 8 0 0 
5 3 1 1 0 
5 3 2 2 0 
6 3 3 3 0 
6 3 4 4 0 
7 3 5 1 0 
7 3 6 5 0 
8 3 7 6 0 
9 4 8 0 0 
5 2 1 8 0 
5 3 2 9 0 
6 3 3 10 0 
6 3 4 11 0 
7 3 5 8 0 
7 3 6 9 0 
8 3 7 10 0 
9 3 8 12 0 
5 2 1 8 0 
10 3 2 9 0 
6 3 3 10 0 
11 3 4 11 0 
7 3 5 8 0 
12 3 6 9 0 
8 3 7 10 0 
13 3 8 12 0 
5 2 1 8 0 
5 3 2 9 0 
6 3 3 10 0 
6 3 4 11 0 
7 3 5 8 0 
7 3 6 9 0 
8 3 7 10 0 
9 3 8 12 0 
5 2 1 8 0 
10 3 2 9 0 
6 3 3 10 0 
11 3 4 11 0 
7 3 5 8 0 
12 3 6 9 0 
8 3 7 10 0 
13 3 8 12 0 
14 7 10 0 0 
15 0 11 0 0 
16 0 12 0 0 
16 0 13 0 0 
17 0 14 0 0 
17 0 15 0 0 
18 0 16 0 0 
19 1 17 0 0 
5 2 10 0 0 
5 3 18 0 0 
6 3 12 0 0 
6 3 13 0 0 
7 3 14 0 0 
7 3 15 0 0 
8 3 16 0 0 
9 3 17 0 0 
5 3 10 1 0 
5 3 18 2 0 
6 3 12 3 0 
6 3 13 4 0 
7 3 14 1 0 
7 3 15 5 0 
8 3 16 6 0 
9 3 17 0 0 
5 3 10 1 0 
5 3 18 2 0 
6 3 12 3 0 
6 3 13 4 0 
7 3 14 1 0 
7 3 15 5 0 
8 3 16 6 0 
9 3 17 0 0 
0 7 1 1 0 
0 8 2 2 0 
0 0 3 3 0 
0 0 4 4 0 
0 0 5 1 0 
0 0 6 5 0 
0 0 7 6 0 
0 0 8 0 0 
5 9 1 1 0 
5 10 2 2 0 
6 10 3 3 0 
6 10 4 4 0 
7 10 5 1 0 
7 10 6 5 0 
8 11 7 6 0 
9 7 8 0 0 
5 2 1 8 0 
5 3 2 9 0 
6 3 3 10 0 
6 3 4 11 0 
7 3 5 8 0 
7 3 6 9 0 
8 3 7 10 0 
9 3 8 12 0 
5 2 1 8 0 
10 3 2 9 0 
6 3 3 10 0 
11 3 4 11 0 
7 3 5 8 0 
12 3 6 9 0 
8 3 7 10 0 
13 3 8 12 0 
5 2 1 8 0 
5 3 2 9 0 
6 3 3 10 0 
6 3 4 11 0 
7 3 5 8 0 
7 3 6 9 0 
8 3 7 10 0 
9 11 8 12 0 
5 7 1 8 0 
10 0 2 9 0 
6 0 3 10 0 
11 0 4 11 0 
7 0 5 8 0 
12 0 6 9 0 
0 0 7 10 0 
4 0 0 12 0 
0 0 0 0 0 
